# TOPAS Version: 3.9
# Parameter File: sobp.txt
# Results for scorer: DoseScorer
# Scored in component: Phantom
# R in 1 bin  of 15 cm
# Phi in 1 bin  of 360 deg
# Z in 1000 bins of 0.055 cm
# DoseToMedium ( Gy ) : Sum   
0, 0, 0, 1.232961042291203e-11
0, 0, 1, 1.123233537431156e-11
0, 0, 2, 1.062043855637462e-11
0, 0, 3, 9.630967898188736e-12
0, 0, 4, 9.040063836396328e-12
0, 0, 5, 8.629193713749483e-12
0, 0, 6, 8.495148161313804e-12
0, 0, 7, 1.754396627973165e-11
0, 0, 8, 1.327328004452344e-11
0, 0, 9, 8.03885690653372e-12
0, 0, 10, 7.854572027510276e-12
0, 0, 11, 7.985750949401904e-12
0, 0, 12, 4.167773764995886e-11
0, 0, 13, 2.071999256197943e-12
0, 0, 14, 2.267197063768323e-12
0, 0, 15, 5.586554222697382e-12
0, 0, 16, 3.883096101608974e-12
0, 0, 17, 2.855402980034283e-12
0, 0, 18, 5.683908638892676e-12
0, 0, 19, 3.237432023850406e-12
0, 0, 20, 3.236655518254472e-12
0, 0, 21, 4.277818117098819e-12
0, 0, 22, 4.064173303452989e-11
0, 0, 23, 5.052288795659443e-11
0, 0, 24, 2.387384040458684e-11
0, 0, 25, 1.313635918792633e-11
0, 0, 26, 1.741353068684948e-11
0, 0, 27, 1.501761215383368e-11
0, 0, 28, 1.678891747847189e-11
0, 0, 29, 1.429096598004609e-11
0, 0, 30, 1.202904963137907e-11
0, 0, 31, 1.35061432524064e-11
0, 0, 32, 8.325605829750948e-12
0, 0, 33, 1.074462220584937e-11
0, 0, 34, 7.348612170166025e-12
0, 0, 35, 5.634681523453144e-12
0, 0, 36, 6.485884745943693e-12
0, 0, 37, 7.835252412158322e-12
0, 0, 38, 6.590966487862726e-12
0, 0, 39, 1.326840286947073e-11
0, 0, 40, 5.322580917677122e-12
0, 0, 41, 6.749988155224651e-12
0, 0, 42, 6.27970852401516e-12
0, 0, 43, 7.092109451795059e-12
0, 0, 44, 2.717275189578761e-11
0, 0, 45, 2.344285182642736e-11
0, 0, 46, 1.862322449031062e-11
0, 0, 47, 1.574973311491146e-11
0, 0, 48, 1.462450646694258e-11
0, 0, 49, 1.356608055058661e-11
0, 0, 50, 1.254561298597023e-11
0, 0, 51, 1.30424082991909e-11
0, 0, 52, 1.325238876970225e-11
0, 0, 53, 2.242877931990517e-11
0, 0, 54, 1.072981547362017e-11
0, 0, 55, 1.036470215209917e-11
0, 0, 56, 1.17898798362992e-11
0, 0, 57, 9.969806230580858e-12
0, 0, 58, 8.53564181141353e-12
0, 0, 59, 8.992900174531471e-12
0, 0, 60, 2.128803210099672e-11
0, 0, 61, 9.405537980400336e-12
0, 0, 62, 1.225743118116185e-11
0, 0, 63, 7.125024962389981e-12
0, 0, 64, 7.273424484227631e-12
0, 0, 65, 6.922490358718392e-12
0, 0, 66, 3.664051353990949e-11
0, 0, 67, 4.429561318436415e-12
0, 0, 68, 3.141867668809972e-11
0, 0, 69, 4.556090314050687e-12
0, 0, 70, 3.914006705546536e-12
0, 0, 71, 2.318961429131905e-12
0, 0, 72, 2.739913330940258e-12
0, 0, 73, 3.006920667320001e-12
0, 0, 74, 4.472739886796084e-12
0, 0, 75, 3.156356252753678e-12
0, 0, 76, 5.926805053679818e-12
0, 0, 77, 3.874048217639148e-12
0, 0, 78, 1.601844004661679e-11
0, 0, 79, 2.50155330477897e-11
0, 0, 80, 3.854519568108339e-12
0, 0, 81, 1.845882821593925e-12
0, 0, 82, 6.742588800658089e-13
0, 0, 83, 1.308498340062136e-12
0, 0, 84, 6.17769507424426e-12
0, 0, 85, 1.697143266849929e-13
0, 0, 86, 1.682540787033899e-18
0, 0, 87, 3.001568991186504e-14
0, 0, 88, 1.09353932159495e-12
0, 0, 89, 4.2619928419807e-11
0, 0, 90, 2.292847444025636e-13
0, 0, 91, 1.196839800659752e-13
0, 0, 92, 0
0, 0, 93, 1.812608917128866e-11
0, 0, 94, 2.472115047391643e-11
0, 0, 95, 2.70249252663779e-12
0, 0, 96, 2.885061330462624e-12
0, 0, 97, 9.045045528538465e-13
0, 0, 98, 1.279564128264798e-12
0, 0, 99, 1.046365251389236e-12
0, 0, 100, 1.703343520918776e-12
0, 0, 101, 1.89676638111258e-12
0, 0, 102, 1.903900865088404e-12
0, 0, 103, 1.48493381219722e-12
0, 0, 104, 8.985088064197844e-13
0, 0, 105, 9.378117856936874e-13
0, 0, 106, 3.305354850501735e-13
0, 0, 107, 9.250709058364684e-14
0, 0, 108, 1.413512969866693e-12
0, 0, 109, 3.058194539620751e-12
0, 0, 110, 3.696870067015912e-12
0, 0, 111, 1.410186420761073e-12
0, 0, 112, 1.264598018316243e-12
0, 0, 113, 4.523009299994135e-13
0, 0, 114, 1.205441562540654e-11
0, 0, 115, 9.737210170113197e-12
0, 0, 116, 8.890436672438773e-13
0, 0, 117, 6.263516723510609e-13
0, 0, 118, 1.702260402948463e-12
0, 0, 119, 1.53190979866602e-12
0, 0, 120, 1.368607050605819e-12
0, 0, 121, 2.607763831263821e-12
0, 0, 122, 4.639533982692123e-12
0, 0, 123, 3.210000841524785e-12
0, 0, 124, 2.037695966822239e-12
0, 0, 125, 1.691662001451766e-12
0, 0, 126, 1.578033927487899e-12
0, 0, 127, 1.195981898585718e-12
0, 0, 128, 2.117787065505916e-12
0, 0, 129, 3.729761725163039e-13
0, 0, 130, 1.447617958665048e-12
0, 0, 131, 4.996008381302763e-12
0, 0, 132, 1.85604981904619e-12
0, 0, 133, 3.271254100933874e-11
0, 0, 134, 2.482973679093781e-12
0, 0, 135, 1.187973113978003e-12
0, 0, 136, 1.448899594053144e-13
0, 0, 137, 7.430689635649912e-13
0, 0, 138, 1.12708616311491e-12
0, 0, 139, 2.745854542005044e-12
0, 0, 140, 1.275944519311956e-12
0, 0, 141, 7.083278733520382e-13
0, 0, 142, 8.50614500710889e-13
0, 0, 143, 4.020293755020721e-13
0, 0, 144, 2.382966393654762e-11
0, 0, 145, 3.63151765603309e-11
0, 0, 146, 4.436376960237354e-11
0, 0, 147, 9.251929951326066e-12
0, 0, 148, 6.288059049147643e-12
0, 0, 149, 7.554212116955838e-11
0, 0, 150, 1.271372590538888e-11
0, 0, 151, 6.654500626750159e-13
0, 0, 152, 1.422706830817022e-11
0, 0, 153, 2.08927614792076e-11
0, 0, 154, 1.392413788436908e-11
0, 0, 155, 1.113371807942576e-11
0, 0, 156, 9.960515919005264e-12
0, 0, 157, 1.815708347563394e-11
0, 0, 158, 9.650493945634331e-12
0, 0, 159, 9.832475979243416e-12
0, 0, 160, 2.175503700796444e-12
0, 0, 161, 8.564996043132489e-13
0, 0, 162, 7.114419730419597e-13
0, 0, 163, 3.090142074516078e-13
0, 0, 164, 1.242987158513176e-12
0, 0, 165, 4.034946422121211e-12
0, 0, 166, 1.037249279522978e-11
0, 0, 167, 1.705333790846808e-11
0, 0, 168, 5.94127438219294e-12
0, 0, 169, 1.048404332099073e-11
0, 0, 170, 1.571043208720146e-12
0, 0, 171, 2.714427207312076e-12
0, 0, 172, 2.195706940918973e-12
0, 0, 173, 2.093838991079622e-12
0, 0, 174, 2.258082609785106e-12
0, 0, 175, 2.82618524936884e-12
0, 0, 176, 8.430516484567163e-13
0, 0, 177, 1.338284951607482e-11
0, 0, 178, 8.807043636038792e-12
0, 0, 179, 4.51268189483045e-12
0, 0, 180, 1.164553804951229e-12
0, 0, 181, 1.120600921084014e-11
0, 0, 182, 2.065141460616537e-12
0, 0, 183, 1.216920553041845e-12
0, 0, 184, 1.30992050539902e-10
0, 0, 185, 6.275162139045276e-13
0, 0, 186, 4.97613669020458e-12
0, 0, 187, 1.241149977931899e-12
0, 0, 188, 4.209392437479892e-13
0, 0, 189, 2.535358858621328e-12
0, 0, 190, 9.038597995059128e-12
0, 0, 191, 3.015005996601094e-12
0, 0, 192, 3.261593252423811e-12
0, 0, 193, 1.736267705131078e-12
0, 0, 194, 1.171686987884446e-12
0, 0, 195, 1.619016227506764e-12
0, 0, 196, 1.03149468133612e-11
0, 0, 197, 2.173746209074845e-12
0, 0, 198, 3.036307834561846e-19
0, 0, 199, 1.628815897262992e-13
0, 0, 200, 2.376161875768112e-13
0, 0, 201, 3.663197403833834e-13
0, 0, 202, 4.435147023089619e-19
0, 0, 203, 1.26846374116224e-12
0, 0, 204, 1.649840745791831e-13
0, 0, 205, 1.997252359429037e-14
0, 0, 206, 2.052300657976597e-13
0, 0, 207, 5.427317015943567e-12
0, 0, 208, 5.339870559617488e-11
0, 0, 209, 4.250293172969322e-11
0, 0, 210, 1.22083064144074e-11
0, 0, 211, 1.941817366624132e-12
0, 0, 212, 1.462296603249591e-11
0, 0, 213, 2.959880257558112e-11
0, 0, 214, 4.511057846712241e-11
0, 0, 215, 2.561002972190085e-11
0, 0, 216, 1.883148151304859e-11
0, 0, 217, 2.458671829498604e-13
0, 0, 218, 1.031992742130117e-12
0, 0, 219, 5.485315232090816e-14
0, 0, 220, 1.489135854557122e-12
0, 0, 221, 8.72263362144209e-18
0, 0, 222, 4.919040175188627e-11
0, 0, 223, 3.432360732441575e-12
0, 0, 224, 2.767978034279306e-11
0, 0, 225, 1.36899658276235e-11
0, 0, 226, 1.470549897131246e-11
0, 0, 227, 6.547295691716748e-12
0, 0, 228, 1.510239524583901e-12
0, 0, 229, 3.330064522744092e-12
0, 0, 230, 1.193285487782747e-11
0, 0, 231, 1.07675955825226e-12
0, 0, 232, 7.330805884206426e-13
0, 0, 233, 5.556845131607369e-13
0, 0, 234, 2.361211269910624e-12
0, 0, 235, 4.993478287113051e-12
0, 0, 236, 1.162265336057677e-11
0, 0, 237, 3.038888802056605e-12
0, 0, 238, 8.64437254416428e-12
0, 0, 239, 2.625948763990138e-11
0, 0, 240, 1.812426250746846e-11
0, 0, 241, 1.283736224960697e-11
0, 0, 242, 1.429052189083624e-11
0, 0, 243, 1.144605851072233e-11
0, 0, 244, 1.073778652799229e-11
0, 0, 245, 1.084019332631136e-11
0, 0, 246, 1.151230239609946e-11
0, 0, 247, 3.99977169440735e-11
0, 0, 248, 2.383914940451426e-11
0, 0, 249, 1.547185643491211e-11
0, 0, 250, 1.355398345642689e-11
0, 0, 251, 6.984305495061349e-12
0, 0, 252, 5.595573050048985e-12
0, 0, 253, 5.277122055308281e-12
0, 0, 254, 6.112109082745398e-12
0, 0, 255, 8.107456546391223e-12
0, 0, 256, 1.229710170497222e-11
0, 0, 257, 1.223149359574904e-11
0, 0, 258, 6.897337301997597e-12
0, 0, 259, 7.20735493855984e-12
0, 0, 260, 5.706217616474607e-12
0, 0, 261, 8.014828384306227e-12
0, 0, 262, 1.247609220794699e-11
0, 0, 263, 3.509584983740766e-11
0, 0, 264, 2.768820936416283e-11
0, 0, 265, 1.269185017499508e-11
0, 0, 266, 4.516035548990383e-12
0, 0, 267, 2.438423941930612e-11
0, 0, 268, 2.929112508098797e-11
0, 0, 269, 4.068377145588498e-12
0, 0, 270, 5.799185437416199e-11
0, 0, 271, 1.496914744936184e-11
0, 0, 272, 8.654428736154518e-12
0, 0, 273, 4.370520438612413e-12
0, 0, 274, 1.137332936163027e-11
0, 0, 275, 1.509689942502668e-11
0, 0, 276, 1.170480552759035e-11
0, 0, 277, 1.915133633276223e-12
0, 0, 278, 1.712471137116367e-11
0, 0, 279, 2.040020236071527e-11
0, 0, 280, 2.749580771399529e-11
0, 0, 281, 2.144787646096713e-11
0, 0, 282, 7.579171665272888e-12
0, 0, 283, 2.535047258916956e-12
0, 0, 284, 8.677713408955512e-11
0, 0, 285, 1.201313354348699e-10
0, 0, 286, 1.697351634244448e-11
0, 0, 287, 1.872190770468851e-11
0, 0, 288, 1.853464950962724e-11
0, 0, 289, 1.973033195157292e-11
0, 0, 290, 1.683887751458002e-11
0, 0, 291, 9.521711544224765e-12
0, 0, 292, 8.362825189289769e-12
0, 0, 293, 8.216938414407071e-12
0, 0, 294, 9.223533395386063e-12
0, 0, 295, 9.012410609465782e-12
0, 0, 296, 1.277970611279766e-11
0, 0, 297, 1.083175823340943e-11
0, 0, 298, 2.05013089837891e-11
0, 0, 299, 2.648262859006323e-11
0, 0, 300, 7.721933335813613e-12
0, 0, 301, 6.742465093190209e-12
0, 0, 302, 7.13393363480086e-12
0, 0, 303, 6.181257328902179e-12
0, 0, 304, 3.265976898647605e-12
0, 0, 305, 5.553820424386569e-12
0, 0, 306, 2.053341654692509e-12
0, 0, 307, 1.868083595799042e-12
0, 0, 308, 2.856256897665332e-12
0, 0, 309, 2.00256668886345e-11
0, 0, 310, 8.476284778236032e-12
0, 0, 311, 9.173098045045514e-12
0, 0, 312, 1.837907603885469e-11
0, 0, 313, 6.227519801921266e-12
0, 0, 314, 9.680205421969124e-12
0, 0, 315, 3.428094960677974e-11
0, 0, 316, 8.59268003972069e-11
0, 0, 317, 7.039146175669142e-12
0, 0, 318, 1.717636276266088e-11
0, 0, 319, 5.96505397160163e-12
0, 0, 320, 2.439891517991288e-11
0, 0, 321, 5.504524960842083e-11
0, 0, 322, 2.638752584493975e-11
0, 0, 323, 2.478489115331772e-11
0, 0, 324, 1.725676372632545e-11
0, 0, 325, 3.382948782215678e-11
0, 0, 326, 2.345143350346302e-11
0, 0, 327, 1.74416332071603e-11
0, 0, 328, 1.90384357584561e-11
0, 0, 329, 1.437830150080588e-11
0, 0, 330, 2.140011778895001e-11
0, 0, 331, 1.588259732066e-11
0, 0, 332, 3.963208927704187e-11
0, 0, 333, 4.810588385972814e-11
0, 0, 334, 4.858506999494416e-11
0, 0, 335, 5.425425039784493e-11
0, 0, 336, 3.763190800643024e-11
0, 0, 337, 1.698410162509489e-11
0, 0, 338, 2.539520156663588e-11
0, 0, 339, 2.03732222064934e-11
0, 0, 340, 1.596827010896806e-11
0, 0, 341, 1.781019082214286e-11
0, 0, 342, 1.622154667535458e-11
0, 0, 343, 1.573059391080101e-11
0, 0, 344, 6.794789991076966e-12
0, 0, 345, 4.786786418631284e-12
0, 0, 346, 1.793425304097429e-11
0, 0, 347, 5.75366247701492e-11
0, 0, 348, 8.610845543544077e-12
0, 0, 349, 2.413689907665439e-11
0, 0, 350, 1.31166839542618e-11
0, 0, 351, 3.166475762150789e-11
0, 0, 352, 3.571724860318426e-11
0, 0, 353, 4.733939976131474e-11
0, 0, 354, 3.084447974810445e-11
0, 0, 355, 2.3369584045696e-11
0, 0, 356, 2.229447355894809e-11
0, 0, 357, 5.797307772725802e-11
0, 0, 358, 3.856280919589672e-11
0, 0, 359, 5.100998096141396e-11
0, 0, 360, 6.37227492994441e-11
0, 0, 361, 3.115411054133155e-11
0, 0, 362, 2.673930174501571e-11
0, 0, 363, 7.462159362647824e-11
0, 0, 364, 2.962191256172808e-11
0, 0, 365, 1.997520378271833e-11
0, 0, 366, 2.093268787473068e-11
0, 0, 367, 1.894443282801639e-11
0, 0, 368, 3.26608844136711e-11
0, 0, 369, 1.770170121595527e-11
0, 0, 370, 1.951322436966052e-11
0, 0, 371, 2.177471397635244e-11
0, 0, 372, 2.097700485537146e-11
0, 0, 373, 3.859536648609385e-11
0, 0, 374, 2.299619696055633e-11
0, 0, 375, 3.818900751184628e-11
0, 0, 376, 5.262687161056157e-11
0, 0, 377, 6.886526765503831e-11
0, 0, 378, 4.003434042609832e-11
0, 0, 379, 3.055717484601317e-11
0, 0, 380, 3.781936916413819e-11
0, 0, 381, 3.359511974165841e-11
0, 0, 382, 2.098327241129017e-11
0, 0, 383, 3.667255041306383e-11
0, 0, 384, 4.352898944071093e-11
0, 0, 385, 2.336807136682495e-11
0, 0, 386, 6.933552343380001e-11
0, 0, 387, 2.715960789601013e-11
0, 0, 388, 2.651258899921682e-11
0, 0, 389, 2.066116375210036e-11
0, 0, 390, 2.310850816256149e-11
0, 0, 391, 2.901138530797542e-11
0, 0, 392, 4.452550481093276e-11
0, 0, 393, 1.073241009952319e-10
0, 0, 394, 4.021228836026403e-11
0, 0, 395, 2.355550129951034e-11
0, 0, 396, 2.347259019097603e-11
0, 0, 397, 2.672226676048162e-11
0, 0, 398, 2.191405217011333e-11
0, 0, 399, 4.132113748389621e-11
0, 0, 400, 3.562544009794166e-11
0, 0, 401, 3.176800489335108e-11
0, 0, 402, 3.412994192819596e-11
0, 0, 403, 6.256196255494118e-11
0, 0, 404, 3.556740318932938e-11
0, 0, 405, 5.710801623259876e-11
0, 0, 406, 7.102695515071034e-11
0, 0, 407, 5.47184277055468e-11
0, 0, 408, 1.398210453668058e-11
0, 0, 409, 5.624982771235132e-11
0, 0, 410, 5.788568929743221e-11
0, 0, 411, 8.716529581453969e-11
0, 0, 412, 9.178048598901256e-11
0, 0, 413, 4.848304743787502e-11
0, 0, 414, 3.468747858392796e-11
0, 0, 415, 3.362432901554691e-11
0, 0, 416, 5.47026139663398e-11
0, 0, 417, 2.031444630568036e-11
0, 0, 418, 1.82303217660662e-11
0, 0, 419, 1.084097134979034e-11
0, 0, 420, 1.809021855925241e-11
0, 0, 421, 2.109047832210553e-11
0, 0, 422, 1.143027547612085e-10
0, 0, 423, 5.219319074156736e-11
0, 0, 424, 2.563333226235365e-11
0, 0, 425, 4.683174681385793e-11
0, 0, 426, 2.708991711508624e-11
0, 0, 427, 4.096143910170547e-11
0, 0, 428, 1.72448531149394e-11
0, 0, 429, 3.14466890027898e-11
0, 0, 430, 3.758272165699239e-11
0, 0, 431, 2.902996766585009e-11
0, 0, 432, 2.81759129916459e-11
0, 0, 433, 3.224768022058733e-11
0, 0, 434, 2.886501107579598e-11
0, 0, 435, 4.818605583989388e-11
0, 0, 436, 8.861539280147213e-11
0, 0, 437, 5.410787096149505e-11
0, 0, 438, 2.506417989822651e-11
0, 0, 439, 2.415873057159956e-11
0, 0, 440, 2.89407577763745e-11
0, 0, 441, 3.786821550777475e-11
0, 0, 442, 2.629050969982227e-11
0, 0, 443, 3.561552094910603e-11
0, 0, 444, 3.87747334240629e-11
0, 0, 445, 2.603475941775901e-11
0, 0, 446, 2.916323432744505e-11
0, 0, 447, 2.805100075831124e-11
0, 0, 448, 3.6751969523241e-11
0, 0, 449, 6.105897037977925e-11
0, 0, 450, 8.285700597854273e-11
0, 0, 451, 7.061863593893491e-11
0, 0, 452, 1.147853548322253e-10
0, 0, 453, 8.676170198951283e-11
0, 0, 454, 1.009565694931602e-10
0, 0, 455, 6.034985705616336e-11
0, 0, 456, 6.069537927810842e-11
0, 0, 457, 1.038623631544056e-10
0, 0, 458, 8.909567528192497e-11
0, 0, 459, 8.982575794291847e-11
0, 0, 460, 5.56631199466473e-11
0, 0, 461, 5.302549371810628e-11
0, 0, 462, 5.498092606193161e-11
0, 0, 463, 3.6520824558961e-11
0, 0, 464, 2.364445444991148e-11
0, 0, 465, 2.26918032975032e-11
0, 0, 466, 1.943361270517752e-11
0, 0, 467, 4.260212668749652e-11
0, 0, 468, 4.50301948506926e-11
0, 0, 469, 3.389985167578935e-11
0, 0, 470, 3.83083773036752e-11
0, 0, 471, 2.34338659588218e-11
0, 0, 472, 3.619748251137977e-11
0, 0, 473, 7.646796390536892e-11
0, 0, 474, 6.941996283371665e-11
0, 0, 475, 5.083659534999008e-11
0, 0, 476, 7.068934326781573e-11
0, 0, 477, 7.901070075977401e-11
0, 0, 478, 3.791592040336411e-11
0, 0, 479, 3.952592073086514e-11
0, 0, 480, 1.211836325731852e-10
0, 0, 481, 6.304606142704117e-11
0, 0, 482, 1.111284397836698e-10
0, 0, 483, 1.260074683484547e-10
0, 0, 484, 1.079885278421067e-10
0, 0, 485, 8.194424999663497e-11
0, 0, 486, 8.301362375284782e-11
0, 0, 487, 7.961972053882604e-11
0, 0, 488, 5.268124478319258e-11
0, 0, 489, 6.00705804543189e-11
0, 0, 490, 3.158213968124102e-11
0, 0, 491, 5.760150342815074e-11
0, 0, 492, 8.994132522088805e-11
0, 0, 493, 9.502819364737292e-11
0, 0, 494, 9.301919651205637e-11
0, 0, 495, 7.64451973944702e-11
0, 0, 496, 9.746468909721528e-11
0, 0, 497, 8.614898378001001e-11
0, 0, 498, 1.834773444286952e-10
0, 0, 499, 2.294690965021218e-10
0, 0, 500, 6.137617081236613e-09
0, 0, 501, 6.213487058204237e-09
0, 0, 502, 6.41100195153399e-09
0, 0, 503, 6.407334662839048e-09
0, 0, 504, 6.391465579014266e-09
0, 0, 505, 6.315222123021158e-09
0, 0, 506, 6.325093337977705e-09
0, 0, 507, 6.49259934704105e-09
0, 0, 508, 6.2705223236037e-09
0, 0, 509, 6.385910022999042e-09
0, 0, 510, 6.335846070015805e-09
0, 0, 511, 6.445429523438406e-09
0, 0, 512, 6.496288840196485e-09
0, 0, 513, 6.926455409228538e-09
0, 0, 514, 6.412907094244247e-09
0, 0, 515, 6.607335567565542e-09
0, 0, 516, 6.692788545592521e-09
0, 0, 517, 6.640762606480166e-09
0, 0, 518, 6.65049659787087e-09
0, 0, 519, 6.594632839806991e-09
0, 0, 520, 6.792409301681346e-09
0, 0, 521, 6.696050380838869e-09
0, 0, 522, 6.590599621603133e-09
0, 0, 523, 6.671327490437307e-09
0, 0, 524, 6.739551583478942e-09
0, 0, 525, 6.86448720088606e-09
0, 0, 526, 6.714508060667868e-09
0, 0, 527, 6.812579833592736e-09
0, 0, 528, 6.782087336176801e-09
0, 0, 529, 6.911211158922015e-09
0, 0, 530, 6.967965315851643e-09
0, 0, 531, 6.71527011775197e-09
0, 0, 532, 6.778170025256713e-09
0, 0, 533, 6.798376084304891e-09
0, 0, 534, 6.928310813947292e-09
0, 0, 535, 6.933591034652409e-09
0, 0, 536, 7.180816385954358e-09
0, 0, 537, 6.926677897922673e-09
0, 0, 538, 7.001463853129053e-09
0, 0, 539, 7.019653303075302e-09
0, 0, 540, 7.080966035744041e-09
0, 0, 541, 6.970122701233095e-09
0, 0, 542, 7.239342902920498e-09
0, 0, 543, 7.221939934964894e-09
0, 0, 544, 7.151856884490826e-09
0, 0, 545, 7.184862038656092e-09
0, 0, 546, 7.289974401913923e-09
0, 0, 547, 7.297305426590128e-09
0, 0, 548, 7.225854137260512e-09
0, 0, 549, 7.373446297975761e-09
0, 0, 550, 7.114030697863427e-09
0, 0, 551, 7.144584479590321e-09
0, 0, 552, 7.091317311136436e-09
0, 0, 553, 7.240662736052172e-09
0, 0, 554, 7.256494960472537e-09
0, 0, 555, 7.478766939073012e-09
0, 0, 556, 7.336215634978771e-09
0, 0, 557, 7.36358662933867e-09
0, 0, 558, 7.557475534269997e-09
0, 0, 559, 7.591845374577133e-09
0, 0, 560, 7.559760817343886e-09
0, 0, 561, 7.50095630053238e-09
0, 0, 562, 7.344421515398381e-09
0, 0, 563, 7.437976456969864e-09
0, 0, 564, 7.487549247287006e-09
0, 0, 565, 7.489447284569906e-09
0, 0, 566, 7.679684443928636e-09
0, 0, 567, 7.723725659047886e-09
0, 0, 568, 7.695196480028699e-09
0, 0, 569, 7.693663484076296e-09
0, 0, 570, 7.709292759727759e-09
0, 0, 571, 7.719402006500786e-09
0, 0, 572, 7.776903565570592e-09
0, 0, 573, 7.752928965487627e-09
0, 0, 574, 7.7736217463098e-09
0, 0, 575, 7.960765380232715e-09
0, 0, 576, 7.911378219205289e-09
0, 0, 577, 7.941902246955124e-09
0, 0, 578, 8.074150237291633e-09
0, 0, 579, 7.975347493527352e-09
0, 0, 580, 8.194001921424388e-09
0, 0, 581, 8.080383473441088e-09
0, 0, 582, 7.959322090300702e-09
0, 0, 583, 8.165170761742502e-09
0, 0, 584, 8.221584302248175e-09
0, 0, 585, 8.175995880321807e-09
0, 0, 586, 8.214912305959388e-09
0, 0, 587, 8.16733702890815e-09
0, 0, 588, 8.162407638678815e-09
0, 0, 589, 8.248171035063478e-09
0, 0, 590, 8.335254264579817e-09
0, 0, 591, 8.366029646822426e-09
0, 0, 592, 8.415229402203295e-09
0, 0, 593, 8.524557060241023e-09
0, 0, 594, 8.683688434985015e-09
0, 0, 595, 8.678751939328322e-09
0, 0, 596, 8.661742434412645e-09
0, 0, 597, 8.670904882990271e-09
0, 0, 598, 9.009462509368404e-09
0, 0, 599, 8.839513121472464e-09
0, 0, 600, 8.907534265745198e-09
0, 0, 601, 9.14243081240329e-09
0, 0, 602, 9.1784766453884e-09
0, 0, 603, 9.442933546210952e-09
0, 0, 604, 9.734298700436739e-09
0, 0, 605, 9.672770140412013e-09
0, 0, 606, 9.642184828351219e-09
0, 0, 607, 9.74682379251135e-09
0, 0, 608, 1.010228967146531e-08
0, 0, 609, 1.034620655815388e-08
0, 0, 610, 1.056748732963797e-08
0, 0, 611, 1.082909051319803e-08
0, 0, 612, 1.126660276185021e-08
0, 0, 613, 1.12677023267338e-08
0, 0, 614, 1.180595887717573e-08
0, 0, 615, 1.212611611123293e-08
0, 0, 616, 1.230739066215847e-08
0, 0, 617, 1.280989092578011e-08
0, 0, 618, 1.337849386828793e-08
0, 0, 619, 1.391163362285397e-08
0, 0, 620, 1.42816061199369e-08
0, 0, 621, 1.511748415339298e-08
0, 0, 622, 1.583801712001787e-08
0, 0, 623, 1.593409137967683e-08
0, 0, 624, 1.688205131245013e-08
0, 0, 625, 1.731381793490527e-08
0, 0, 626, 1.860860798785779e-08
0, 0, 627, 1.933923421404415e-08
0, 0, 628, 2.045785940651967e-08
0, 0, 629, 2.122148146099789e-08
0, 0, 630, 2.230269302572196e-08
0, 0, 631, 2.346470573399984e-08
0, 0, 632, 2.470645377172787e-08
0, 0, 633, 2.582632063763413e-08
0, 0, 634, 2.68042832374249e-08
0, 0, 635, 2.889060368715946e-08
0, 0, 636, 2.95029760621901e-08
0, 0, 637, 3.057227360159231e-08
0, 0, 638, 3.193895281583536e-08
0, 0, 639, 3.302565687590686e-08
0, 0, 640, 3.449629204510529e-08
0, 0, 641, 3.52217313093206e-08
0, 0, 642, 3.640061052578858e-08
0, 0, 643, 3.830162498275058e-08
0, 0, 644, 3.876823839732424e-08
0, 0, 645, 4.036965961518035e-08
0, 0, 646, 4.132461839390089e-08
0, 0, 647, 4.19132248907772e-08
0, 0, 648, 4.289448796157558e-08
0, 0, 649, 4.425191235668535e-08
0, 0, 650, 4.577183432274978e-08
0, 0, 651, 4.624566685151876e-08
0, 0, 652, 4.66441107960236e-08
0, 0, 653, 4.738592807029818e-08
0, 0, 654, 4.830661737287301e-08
0, 0, 655, 4.957835386676379e-08
0, 0, 656, 5.024351068527722e-08
0, 0, 657, 5.043076356514575e-08
0, 0, 658, 5.146013393186877e-08
0, 0, 659, 5.153294679871578e-08
0, 0, 660, 5.166596395156375e-08
0, 0, 661, 5.161742677728398e-08
0, 0, 662, 5.118602075526724e-08
0, 0, 663, 5.118536350323666e-08
0, 0, 664, 5.036321226725704e-08
0, 0, 665, 4.977114897997126e-08
0, 0, 666, 4.976738665618541e-08
0, 0, 667, 4.883552406909075e-08
0, 0, 668, 4.802843989182293e-08
0, 0, 669, 4.725768931734819e-08
0, 0, 670, 4.669072950491682e-08
0, 0, 671, 4.545827181345885e-08
0, 0, 672, 4.429584876675108e-08
0, 0, 673, 4.312765966574261e-08
0, 0, 674, 4.230555106232714e-08
0, 0, 675, 4.114619400752417e-08
0, 0, 676, 4.095784689184256e-08
0, 0, 677, 4.015279841951269e-08
0, 0, 678, 3.957081062821999e-08
0, 0, 679, 3.838230711039614e-08
0, 0, 680, 3.761628875054157e-08
0, 0, 681, 3.649656932225298e-08
0, 0, 682, 3.571676643332466e-08
0, 0, 683, 3.518918845202279e-08
0, 0, 684, 3.448225527336035e-08
0, 0, 685, 3.373397916561771e-08
0, 0, 686, 3.353482469492519e-08
0, 0, 687, 3.332845821546471e-08
0, 0, 688, 3.284414518134326e-08
0, 0, 689, 3.146805838127875e-08
0, 0, 690, 3.079630772617747e-08
0, 0, 691, 3.017780869640774e-08
0, 0, 692, 2.943965604629284e-08
0, 0, 693, 2.880659799586738e-08
0, 0, 694, 2.860246084424034e-08
0, 0, 695, 2.765101569934814e-08
0, 0, 696, 2.723183101238646e-08
0, 0, 697, 2.686297229104184e-08
0, 0, 698, 2.603512250232143e-08
0, 0, 699, 2.546837940542446e-08
0, 0, 700, 2.528821063663145e-08
0, 0, 701, 2.500920182058053e-08
0, 0, 702, 2.457223047258594e-08
0, 0, 703, 2.419905698047842e-08
0, 0, 704, 2.337187154921594e-08
0, 0, 705, 2.324029502176472e-08
0, 0, 706, 2.28265992774368e-08
0, 0, 707, 2.25478977711191e-08
0, 0, 708, 2.228780537905095e-08
0, 0, 709, 2.195462478482568e-08
0, 0, 710, 2.186278358351501e-08
0, 0, 711, 2.178378721851004e-08
0, 0, 712, 2.129424636621025e-08
0, 0, 713, 2.127969267462504e-08
0, 0, 714, 2.098512297266097e-08
0, 0, 715, 2.054270886731047e-08
0, 0, 716, 2.077004346290323e-08
0, 0, 717, 2.054188641409382e-08
0, 0, 718, 2.049915970303573e-08
0, 0, 719, 2.043567626230924e-08
0, 0, 720, 2.006408195143194e-08
0, 0, 721, 2.003061183586397e-08
0, 0, 722, 1.96939282659514e-08
0, 0, 723, 1.987090136879033e-08
0, 0, 724, 1.957583606326807e-08
0, 0, 725, 1.948187389189115e-08
0, 0, 726, 1.964327367431906e-08
0, 0, 727, 1.98365768255826e-08
0, 0, 728, 1.99641494447178e-08
0, 0, 729, 1.9376422244477e-08
0, 0, 730, 1.938178684213199e-08
0, 0, 731, 1.904364310689743e-08
0, 0, 732, 1.920964542989623e-08
0, 0, 733, 1.925987547224395e-08
0, 0, 734, 1.90962285984142e-08
0, 0, 735, 1.883861244778018e-08
0, 0, 736, 1.946836469812752e-08
0, 0, 737, 1.924186321389243e-08
0, 0, 738, 1.889922351949735e-08
0, 0, 739, 1.868478705091547e-08
0, 0, 740, 1.857583065145718e-08
0, 0, 741, 1.856526665733327e-08
0, 0, 742, 1.845595853922077e-08
0, 0, 743, 1.870577293061615e-08
0, 0, 744, 1.848838238061035e-08
0, 0, 745, 1.840810703868101e-08
0, 0, 746, 1.850423103633148e-08
0, 0, 747, 1.821652162448117e-08
0, 0, 748, 1.814614947193149e-08
0, 0, 749, 1.837528706971625e-08
0, 0, 750, 1.811149097363796e-08
0, 0, 751, 1.792484027873797e-08
0, 0, 752, 1.8031521165085e-08
0, 0, 753, 1.786180092722134e-08
0, 0, 754, 1.776880509396506e-08
0, 0, 755, 1.760504098058391e-08
0, 0, 756, 1.777491931420627e-08
0, 0, 757, 1.74768644001233e-08
0, 0, 758, 1.730255050347296e-08
0, 0, 759, 1.766711399397991e-08
0, 0, 760, 1.717834052783473e-08
0, 0, 761, 1.730578169656383e-08
0, 0, 762, 1.715469366558864e-08
0, 0, 763, 1.731236665136748e-08
0, 0, 764, 1.743227429074068e-08
0, 0, 765, 1.738628796488229e-08
0, 0, 766, 1.748277966839851e-08
0, 0, 767, 1.752198208748723e-08
0, 0, 768, 1.738737154255432e-08
0, 0, 769, 1.73191168073572e-08
0, 0, 770, 1.699544505129325e-08
0, 0, 771, 1.729962306740163e-08
0, 0, 772, 1.70744183236593e-08
0, 0, 773, 1.711496544487545e-08
0, 0, 774, 1.728702692105344e-08
0, 0, 775, 1.703179819401157e-08
0, 0, 776, 1.69606195754568e-08
0, 0, 777, 1.705119245798414e-08
0, 0, 778, 1.723975628920016e-08
0, 0, 779, 1.725060450041838e-08
0, 0, 780, 1.677245364817281e-08
0, 0, 781, 1.672757754533905e-08
0, 0, 782, 1.680685812743832e-08
0, 0, 783, 1.698278673245568e-08
0, 0, 784, 1.697676488277011e-08
0, 0, 785, 1.666636606501015e-08
0, 0, 786, 1.6463269858491e-08
0, 0, 787, 1.657521941922369e-08
0, 0, 788, 1.664887783192626e-08
0, 0, 789, 1.656662540483467e-08
0, 0, 790, 1.651697090210291e-08
0, 0, 791, 1.641439695276858e-08
0, 0, 792, 1.651941161640025e-08
0, 0, 793, 1.644778890863563e-08
0, 0, 794, 1.639723912205682e-08
0, 0, 795, 1.632315438371279e-08
0, 0, 796, 1.653044812144344e-08
0, 0, 797, 1.618658274082918e-08
0, 0, 798, 1.630234081062554e-08
0, 0, 799, 1.617233635897719e-08
0, 0, 800, 1.607366684197586e-08
0, 0, 801, 1.589212850205968e-08
0, 0, 802, 1.585904207956901e-08
0, 0, 803, 1.607316058027664e-08
0, 0, 804, 1.585019759886563e-08
0, 0, 805, 1.593521758991301e-08
0, 0, 806, 1.565306284589951e-08
0, 0, 807, 1.591673637335589e-08
0, 0, 808, 1.587318365636747e-08
0, 0, 809, 1.62030531214441e-08
0, 0, 810, 1.601764765268854e-08
0, 0, 811, 1.556504791722091e-08
0, 0, 812, 1.552309569774479e-08
0, 0, 813, 1.583775066649196e-08
0, 0, 814, 1.585699571649002e-08
0, 0, 815, 1.560117901533431e-08
0, 0, 816, 1.567141438840736e-08
0, 0, 817, 1.571988583748407e-08
0, 0, 818, 1.546549910358408e-08
0, 0, 819, 1.539686955709385e-08
0, 0, 820, 1.543987337981889e-08
0, 0, 821, 1.539959093577181e-08
0, 0, 822, 1.548559147579454e-08
0, 0, 823, 1.524456116896999e-08
0, 0, 824, 1.564173324197782e-08
0, 0, 825, 1.556429651827784e-08
0, 0, 826, 1.530800552984601e-08
0, 0, 827, 1.509024727397446e-08
0, 0, 828, 1.51408343640469e-08
0, 0, 829, 1.53948747083632e-08
0, 0, 830, 1.517945591444914e-08
0, 0, 831, 1.51222145916563e-08
0, 0, 832, 1.519241443759256e-08
0, 0, 833, 1.500526103370703e-08
0, 0, 834, 1.564572826850963e-08
0, 0, 835, 1.525937776136743e-08
0, 0, 836, 1.504435864774223e-08
0, 0, 837, 1.486692635666031e-08
0, 0, 838, 1.502869118041872e-08
0, 0, 839, 1.506501590142761e-08
0, 0, 840, 1.50070000870528e-08
0, 0, 841, 1.49437546781428e-08
0, 0, 842, 1.520417391986939e-08
0, 0, 843, 1.50917056629396e-08
0, 0, 844, 1.476266842104224e-08
0, 0, 845, 1.488384082648508e-08
0, 0, 846, 1.477940525518306e-08
0, 0, 847, 1.471360278060274e-08
0, 0, 848, 1.471602395497484e-08
0, 0, 849, 1.493006962505206e-08
0, 0, 850, 1.502384172624716e-08
0, 0, 851, 1.496708001980096e-08
0, 0, 852, 1.453088316338835e-08
0, 0, 853, 1.484535960827316e-08
0, 0, 854, 1.487136014333146e-08
0, 0, 855, 1.45360115055837e-08
0, 0, 856, 1.44826941550491e-08
0, 0, 857, 1.440991059808994e-08
0, 0, 858, 1.439178820561438e-08
0, 0, 859, 1.44899887644101e-08
0, 0, 860, 1.469733579284593e-08
0, 0, 861, 1.482693168242122e-08
0, 0, 862, 1.45480312241375e-08
0, 0, 863, 1.47983243437011e-08
0, 0, 864, 1.450770170663418e-08
0, 0, 865, 1.460783671802801e-08
0, 0, 866, 1.434283536383418e-08
0, 0, 867, 1.423185835847107e-08
0, 0, 868, 1.428765727951031e-08
0, 0, 869, 1.4236399614731e-08
0, 0, 870, 1.427326967728959e-08
0, 0, 871, 1.425479290162457e-08
0, 0, 872, 1.418526363039518e-08
0, 0, 873, 1.413795125415618e-08
0, 0, 874, 1.435356544732258e-08
0, 0, 875, 1.419879946951141e-08
0, 0, 876, 1.433690943741794e-08
0, 0, 877, 1.412861649896513e-08
0, 0, 878, 1.407635163985788e-08
0, 0, 879, 1.411863870259822e-08
0, 0, 880, 1.441235575327937e-08
0, 0, 881, 1.428257512259279e-08
0, 0, 882, 1.406707106355043e-08
0, 0, 883, 1.419547324132964e-08
0, 0, 884, 1.422776918502677e-08
0, 0, 885, 1.457423248751866e-08
0, 0, 886, 1.442570596310588e-08
0, 0, 887, 1.39943434618317e-08
0, 0, 888, 1.421348638785958e-08
0, 0, 889, 1.374608959991974e-08
0, 0, 890, 1.393671311689104e-08
0, 0, 891, 1.407256977614679e-08
0, 0, 892, 1.430820528725008e-08
0, 0, 893, 1.396174287293661e-08
0, 0, 894, 1.38364786295142e-08
0, 0, 895, 1.381119751897586e-08
0, 0, 896, 1.419029160842911e-08
0, 0, 897, 1.402932259253475e-08
0, 0, 898, 1.380656122762502e-08
0, 0, 899, 1.406702132555893e-08
0, 0, 900, 1.394228998918834e-08
0, 0, 901, 1.357140888558206e-08
0, 0, 902, 1.392809068079259e-08
0, 0, 903, 1.39407960730864e-08
0, 0, 904, 1.397331672592372e-08
0, 0, 905, 1.415491635015087e-08
0, 0, 906, 1.388828341220005e-08
0, 0, 907, 1.375546876403178e-08
0, 0, 908, 1.366987856243895e-08
0, 0, 909, 1.373499891599295e-08
